t,theta
0.00000000,0.10000000
0.00100000,0.10000000
0.00200000,0.09999951
0.00300000,0.09999804
0.00400000,0.09999559
0.00500000,0.09999217
0.00600000,0.09998776
0.00700000,0.09998237
0.00800000,0.09997601
0.00900000,0.09996866
0.01000000,0.09996034
0.01100000,0.09995104
0.01200000,0.09994075
0.01300000,0.09992949
0.01400000,0.09991725
0.01500000,0.09990404
0.01600000,0.09988984
0.01700000,0.09987467
0.01800000,0.09985851
0.01900000,0.09984138
0.02000000,0.09982328
0.02100000,0.09980419
0.02200000,0.09978413
0.02300000,0.09976309
0.02400000,0.09974107
0.02500000,0.09971807
0.02600000,0.09969410
0.02700000,0.09966916
0.02800000,0.09964323
0.02900000,0.09961633
0.03000000,0.09958846
0.03100000,0.09955961
0.03200000,0.09952978
0.03300000,0.09949898
0.03400000,0.09946721
0.03500000,0.09943446
0.03600000,0.09940074
0.03700000,0.09936604
0.03800000,0.09933037
0.03900000,0.09929373
0.04000000,0.09925611
0.04100000,0.09921753
0.04200000,0.09917797
0.04300000,0.09913744
0.04400000,0.09909594
0.04500000,0.09905347
0.04600000,0.09901002
0.04700000,0.09896561
0.04800000,0.09892023
0.04900000,0.09887388
0.05000000,0.09882657
0.05100000,0.09877828
0.05200000,0.09872903
0.05300000,0.09867881
0.05400000,0.09862762
0.05500000,0.09857547
0.05600000,0.09852235
0.05700000,0.09846827
0.05800000,0.09841322
0.05900000,0.09835721
0.06000000,0.09830024
0.06100000,0.09824230
0.06200000,0.09818340
0.06300000,0.09812354
0.06400000,0.09806272
0.06500000,0.09800093
0.06600000,0.09793819
0.06700000,0.09787449
0.06800000,0.09780983
0.06900000,0.09774421
0.07000000,0.09767763
0.07100000,0.09761010
0.07200000,0.09754161
0.07300000,0.09747217
0.07400000,0.09740177
0.07500000,0.09733042
0.07600000,0.09725811
0.07700000,0.09718486
0.07800000,0.09711065
0.07900000,0.09703548
0.08000000,0.09695937
0.08100000,0.09688231
0.08200000,0.09680430
0.08300000,0.09672534
0.08400000,0.09664544
0.08500000,0.09656458
0.08600000,0.09648279
0.08700000,0.09640004
0.08800000,0.09631636
0.08900000,0.09623172
0.09000000,0.09614615
0.09100000,0.09605964
0.09200000,0.09597218
0.09300000,0.09588378
0.09400000,0.09579445
0.09500000,0.09570417
0.09600000,0.09561296
0.09700000,0.09552081
0.09800000,0.09542773
0.09900000,0.09533371
0.10000000,0.09523876
0.10100000,0.09514288
0.10200000,0.09504606
0.10300000,0.09494831
0.10400000,0.09484963
0.10500000,0.09475003
0.10600000,0.09464949
0.10700000,0.09454803
0.10800000,0.09444564
0.10900000,0.09434233
0.11000000,0.09423809
0.11100000,0.09413293
0.11200000,0.09402685
0.11300000,0.09391985
0.11400000,0.09381192
0.11500000,0.09370308
0.11600000,0.09359332
0.11700000,0.09348264
0.11800000,0.09337105
0.11900000,0.09325854
0.12000000,0.09314512
0.12100000,0.09303079
0.12200000,0.09291554
0.12300000,0.09279939
0.12400000,0.09268232
0.12500000,0.09256435
0.12600000,0.09244547
0.12700000,0.09232569
0.12800000,0.09220500
0.12900000,0.09208341
0.13000000,0.09196091
0.13100000,0.09183752
0.13200000,0.09171322
0.13300000,0.09158803
0.13400000,0.09146194
0.13500000,0.09133495
0.13600000,0.09120707
0.13700000,0.09107830
0.13800000,0.09094863
0.13900000,0.09081807
0.14000000,0.09068662
0.14100000,0.09055429
0.14200000,0.09042106
0.14300000,0.09028696
0.14400000,0.09015196
0.14500000,0.09001609
0.14600000,0.08987933
0.14700000,0.08974169
0.14800000,0.08960317
0.14900000,0.08946377
0.15000000,0.08932350
0.15100000,0.08918235
0.15200000,0.08904033
0.15300000,0.08889744
0.15400000,0.08875367
0.15500000,0.08860904
0.15600000,0.08846354
0.15700000,0.08831717
0.15800000,0.08816994
0.15900000,0.08802184
0.16000000,0.08787288
0.16100000,0.08772306
0.16200000,0.08757237
0.16300000,0.08742084
0.16400000,0.08726844
0.16500000,0.08711519
0.16600000,0.08696109
0.16700000,0.08680613
0.16800000,0.08665032
0.16900000,0.08649367
0.17000000,0.08633617
0.17100000,0.08617782
0.17200000,0.08601863
0.17300000,0.08585859
0.17400000,0.08569771
0.17500000,0.08553600
0.17600000,0.08537344
0.17700000,0.08521005
0.17800000,0.08504582
0.17900000,0.08488076
0.18000000,0.08471487
0.18100000,0.08454815
0.18200000,0.08438060
0.18300000,0.08421223
0.18400000,0.08404302
0.18500000,0.08387300
0.18600000,0.08370215
0.18700000,0.08353049
0.18800000,0.08335800
0.18900000,0.08318470
0.19000000,0.08301058
0.19100000,0.08283565
0.19200000,0.08265991
0.19300000,0.08248335
0.19400000,0.08230599
0.19500000,0.08212783
0.19600000,0.08194885
0.19700000,0.08176908
0.19800000,0.08158850
0.19900000,0.08140713
0.20000000,0.08122495
0.20100000,0.08104198
0.20200000,0.08085822
0.20300000,0.08067366
0.20400000,0.08048832
0.20500000,0.08030218
0.20600000,0.08011526
0.20700000,0.07992755
0.20800000,0.07973906
0.20900000,0.07954979
0.21000000,0.07935974
0.21100000,0.07916891
0.21200000,0.07897731
0.21300000,0.07878493
0.21400000,0.07859178
0.21500000,0.07839785
0.21600000,0.07820317
0.21700000,0.07800771
0.21800000,0.07781149
0.21900000,0.07761451
0.22000000,0.07741676
0.22100000,0.07721826
0.22200000,0.07701900
0.22300000,0.07681899
0.22400000,0.07661822
0.22500000,0.07641670
0.22600000,0.07621444
0.22700000,0.07601142
0.22800000,0.07580766
0.22900000,0.07560316
0.23000000,0.07539792
0.23100000,0.07519194
0.23200000,0.07498522
0.23300000,0.07477777
0.23400000,0.07456958
0.23500000,0.07436067
0.23600000,0.07415102
0.23700000,0.07394065
0.23800000,0.07372955
0.23900000,0.07351773
0.24000000,0.07330519
0.24100000,0.07309193
0.24200000,0.07287796
0.24300000,0.07266327
0.24400000,0.07244786
0.24500000,0.07223175
0.24600000,0.07201493
0.24700000,0.07179741
0.24800000,0.07157918
0.24900000,0.07136025
0.25000000,0.07114062
0.25100000,0.07092029
0.25200000,0.07069927
0.25300000,0.07047755
0.25400000,0.07025514
0.25500000,0.07003205
0.25600000,0.06980827
0.25700000,0.06958380
0.25800000,0.06935865
0.25900000,0.06913283
0.26000000,0.06890632
0.26100000,0.06867914
0.26200000,0.06845128
0.26300000,0.06822276
0.26400000,0.06799357
0.26500000,0.06776371
0.26600000,0.06753318
0.26700000,0.06730199
0.26800000,0.06707015
0.26900000,0.06683764
0.27000000,0.06660448
0.27100000,0.06637067
0.27200000,0.06613621
0.27300000,0.06590110
0.27400000,0.06566534
0.27500000,0.06542894
0.27600000,0.06519190
0.27700000,0.06495422
0.27800000,0.06471590
0.27900000,0.06447695
0.28000000,0.06423736
0.28100000,0.06399715
0.28200000,0.06375631
0.28300000,0.06351484
0.28400000,0.06327275
0.28500000,0.06303004
0.28600000,0.06278672
0.28700000,0.06254277
0.28800000,0.06229822
0.28900000,0.06205305
0.29000000,0.06180728
0.29100000,0.06156089
0.29200000,0.06131391
0.29300000,0.06106632
0.29400000,0.06081814
0.29500000,0.06056936
0.29600000,0.06031998
0.29700000,0.06007002
0.29800000,0.05981946
0.29900000,0.05956832
0.30000000,0.05931660
0.30100000,0.05906429
0.30200000,0.05881140
0.30300000,0.05855794
0.30400000,0.05830390
0.30500000,0.05804930
0.30600000,0.05779412
0.30700000,0.05753837
0.30800000,0.05728207
0.30900000,0.05702520
0.31000000,0.05676777
0.31100000,0.05650978
0.31200000,0.05625124
0.31300000,0.05599215
0.31400000,0.05573251
0.31500000,0.05547232
0.31600000,0.05521159
0.31700000,0.05495032
0.31800000,0.05468851
0.31900000,0.05442616
0.32000000,0.05416328
0.32100000,0.05389987
0.32200000,0.05363593
0.32300000,0.05337147
0.32400000,0.05310648
0.32500000,0.05284097
0.32600000,0.05257494
0.32700000,0.05230839
0.32800000,0.05204134
0.32900000,0.05177377
0.33000000,0.05150570
0.33100000,0.05123712
0.33200000,0.05096803
0.33300000,0.05069845
0.33400000,0.05042837
0.33500000,0.05015780
0.33600000,0.04988673
0.33700000,0.04961518
0.33800000,0.04934314
0.33900000,0.04907061
0.34000000,0.04879761
0.34100000,0.04852412
0.34200000,0.04825016
0.34300000,0.04797573
0.34400000,0.04770083
0.34500000,0.04742545
0.34600000,0.04714962
0.34700000,0.04687332
0.34800000,0.04659656
0.34900000,0.04631934
0.35000000,0.04604167
0.35100000,0.04576355
0.35200000,0.04548498
0.35300000,0.04520596
0.35400000,0.04492650
0.35500000,0.04464660
0.35600000,0.04436627
0.35700000,0.04408549
0.35800000,0.04380429
0.35900000,0.04352265
0.36000000,0.04324059
0.36100000,0.04295810
0.36200000,0.04267520
0.36300000,0.04239187
0.36400000,0.04210813
0.36500000,0.04182397
0.36600000,0.04153941
0.36700000,0.04125444
0.36800000,0.04096906
0.36900000,0.04068328
0.37000000,0.04039710
0.37100000,0.04011053
0.37200000,0.03982356
0.37300000,0.03953621
0.37400000,0.03924846
0.37500000,0.03896033
0.37600000,0.03867182
0.37700000,0.03838293
0.37800000,0.03809366
0.37900000,0.03780402
0.38000000,0.03751400
0.38100000,0.03722362
0.38200000,0.03693288
0.38300000,0.03664177
0.38400000,0.03635030
0.38500000,0.03605848
0.38600000,0.03576630
0.38700000,0.03547377
0.38800000,0.03518090
0.38900000,0.03488768
0.39000000,0.03459411
0.39100000,0.03430021
0.39200000,0.03400597
0.39300000,0.03371140
0.39400000,0.03341650
0.39500000,0.03312127
0.39600000,0.03282571
0.39700000,0.03252983
0.39800000,0.03223363
0.39900000,0.03193712
0.40000000,0.03164030
0.40100000,0.03134316
0.40200000,0.03104572
0.40300000,0.03074797
0.40400000,0.03044992
0.40500000,0.03015157
0.40600000,0.02985292
0.40700000,0.02955399
0.40800000,0.02925476
0.40900000,0.02895524
0.41000000,0.02865545
0.41100000,0.02835537
0.41200000,0.02805501
0.41300000,0.02775438
0.41400000,0.02745347
0.41500000,0.02715230
0.41600000,0.02685086
0.41700000,0.02654915
0.41800000,0.02624719
0.41900000,0.02594497
0.42000000,0.02564249
0.42100000,0.02533977
0.42200000,0.02503679
0.42300000,0.02473357
0.42400000,0.02443010
0.42500000,0.02412640
0.42600000,0.02382246
0.42700000,0.02351828
0.42800000,0.02321388
0.42900000,0.02290925
0.43000000,0.02260439
0.43100000,0.02229931
0.43200000,0.02199401
0.43300000,0.02168850
0.43400000,0.02138277
0.43500000,0.02107684
0.43600000,0.02077069
0.43700000,0.02046435
0.43800000,0.02015780
0.43900000,0.01985105
0.44000000,0.01954411
0.44100000,0.01923698
0.44200000,0.01892966
0.44300000,0.01862216
0.44400000,0.01831447
0.44500000,0.01800660
0.44600000,0.01769855
0.44700000,0.01739033
0.44800000,0.01708195
0.44900000,0.01677339
0.45000000,0.01646467
0.45100000,0.01615578
0.45200000,0.01584674
0.45300000,0.01553755
0.45400000,0.01522820
0.45500000,0.01491870
0.45600000,0.01460905
0.45700000,0.01429927
0.45800000,0.01398934
0.45900000,0.01367927
0.46000000,0.01336907
0.46100000,0.01305874
0.46200000,0.01274828
0.46300000,0.01243770
0.46400000,0.01212699
0.46500000,0.01181617
0.46600000,0.01150523
0.46700000,0.01119417
0.46800000,0.01088301
0.46900000,0.01057174
0.47000000,0.01026036
0.47100000,0.00994889
0.47200000,0.00963732
0.47300000,0.00932565
0.47400000,0.00901389
0.47500000,0.00870204
0.47600000,0.00839011
0.47700000,0.00807810
0.47800000,0.00776600
0.47900000,0.00745383
0.48000000,0.00714159
0.48100000,0.00682928
0.48200000,0.00651690
0.48300000,0.00620445
0.48400000,0.00589195
0.48500000,0.00557939
0.48600000,0.00526677
0.48700000,0.00495410
0.48800000,0.00464138
0.48900000,0.00432862
0.49000000,0.00401581
0.49100000,0.00370297
0.49200000,0.00339009
0.49300000,0.00307717
0.49400000,0.00276423
0.49500000,0.00245125
0.49600000,0.00213826
0.49700000,0.00182524
0.49800000,0.00151221
0.49900000,0.00119916
0.50000000,0.00088609
0.50100000,0.00057302
0.50200000,0.00025995
0.50300000,-0.00005313
0.50400000,-0.00036621
0.50500000,-0.00067928
0.50600000,-0.00099235
0.50700000,-0.00130541
0.50800000,-0.00161845
0.50900000,-0.00193148
0.51000000,-0.00224449
0.51100000,-0.00255748
0.51200000,-0.00287044
0.51300000,-0.00318338
0.51400000,-0.00349628
0.51500000,-0.00380915
0.51600000,-0.00412198
0.51700000,-0.00443478
0.51800000,-0.00474752
0.51900000,-0.00506023
0.52000000,-0.00537288
0.52100000,-0.00568548
0.52200000,-0.00599802
0.52300000,-0.00631050
0.52400000,-0.00662293
0.52500000,-0.00693529
0.52600000,-0.00724758
0.52700000,-0.00755979
0.52800000,-0.00787194
0.52900000,-0.00818401
0.53000000,-0.00849599
0.53100000,-0.00880790
0.53200000,-0.00911971
0.53300000,-0.00943144
0.53400000,-0.00974308
0.53500000,-0.01005462
0.53600000,-0.01036606
0.53700000,-0.01067740
0.53800000,-0.01098863
0.53900000,-0.01129976
0.54000000,-0.01161077
0.54100000,-0.01192168
0.54200000,-0.01223246
0.54300000,-0.01254313
0.54400000,-0.01285367
0.54500000,-0.01316408
0.54600000,-0.01347437
0.54700000,-0.01378453
0.54800000,-0.01409454
0.54900000,-0.01440443
0.55000000,-0.01471417
0.55100000,-0.01502376
0.55200000,-0.01533321
0.55300000,-0.01564251
0.55400000,-0.01595165
0.55500000,-0.01626064
0.55600000,-0.01656947
0.55700000,-0.01687813
0.55800000,-0.01718663
0.55900000,-0.01749496
0.56000000,-0.01780312
0.56100000,-0.01811111
0.56200000,-0.01841892
0.56300000,-0.01872654
0.56400000,-0.01903399
0.56500000,-0.01934124
0.56600000,-0.01964831
0.56700000,-0.01995519
0.56800000,-0.02026186
0.56900000,-0.02056834
0.57000000,-0.02087462
0.57100000,-0.02118069
0.57200000,-0.02148656
0.57300000,-0.02179221
0.57400000,-0.02209766
0.57500000,-0.02240288
0.57600000,-0.02270788
0.57700000,-0.02301267
0.57800000,-0.02331722
0.57900000,-0.02362155
0.58000000,-0.02392564
0.58100000,-0.02422950
0.58200000,-0.02453313
0.58300000,-0.02483651
0.58400000,-0.02513965
0.58500000,-0.02544254
0.58600000,-0.02574518
0.58700000,-0.02604757
0.58800000,-0.02634971
0.58900000,-0.02665158
0.59000000,-0.02695320
0.59100000,-0.02725455
0.59200000,-0.02755563
0.59300000,-0.02785644
0.59400000,-0.02815698
0.59500000,-0.02845725
0.59600000,-0.02875723
0.59700000,-0.02905693
0.59800000,-0.02935635
0.59900000,-0.02965548
0.60000000,-0.02995432
0.60100000,-0.03025286
0.60200000,-0.03055111
0.60300000,-0.03084906
0.60400000,-0.03114670
0.60500000,-0.03144404
0.60600000,-0.03174107
0.60700000,-0.03203779
0.60800000,-0.03233420
0.60900000,-0.03263029
0.61000000,-0.03292606
0.61100000,-0.03322150
0.61200000,-0.03351662
0.61300000,-0.03381142
0.61400000,-0.03410588
0.61500000,-0.03440000
0.61600000,-0.03469379
0.61700000,-0.03498724
0.61800000,-0.03528034
0.61900000,-0.03557310
0.62000000,-0.03586551
0.62100000,-0.03615756
0.62200000,-0.03644927
0.62300000,-0.03674061
0.62400000,-0.03703160
0.62500000,-0.03732222
0.62600000,-0.03761248
0.62700000,-0.03790236
0.62800000,-0.03819188
0.62900000,-0.03848102
0.63000000,-0.03876978
0.63100000,-0.03905817
0.63200000,-0.03934617
0.63300000,-0.03963378
0.63400000,-0.03992101
0.63500000,-0.04020784
0.63600000,-0.04049428
0.63700000,-0.04078032
0.63800000,-0.04106596
0.63900000,-0.04135120
0.64000000,-0.04163604
0.64100000,-0.04192046
0.64200000,-0.04220448
0.64300000,-0.04248808
0.64400000,-0.04277126
0.64500000,-0.04305403
0.64600000,-0.04333637
0.64700000,-0.04361829
0.64800000,-0.04389978
0.64900000,-0.04418084
0.65000000,-0.04446146
0.65100000,-0.04474165
0.65200000,-0.04502140
0.65300000,-0.04530071
0.65400000,-0.04557958
0.65500000,-0.04585800
0.65600000,-0.04613597
0.65700000,-0.04641348
0.65800000,-0.04669054
0.65900000,-0.04696715
0.66000000,-0.04724329
0.66100000,-0.04751897
0.66200000,-0.04779418
0.66300000,-0.04806893
0.66400000,-0.04834320
0.66500000,-0.04861700
0.66600000,-0.04889032
0.66700000,-0.04916316
0.66800000,-0.04943553
0.66900000,-0.04970740
0.67000000,-0.04997879
0.67100000,-0.05024969
0.67200000,-0.05052010
0.67300000,-0.05079001
0.67400000,-0.05105942
0.67500000,-0.05132833
0.67600000,-0.05159674
0.67700000,-0.05186464
0.67800000,-0.05213204
0.67900000,-0.05239892
0.68000000,-0.05266529
0.68100000,-0.05293114
0.68200000,-0.05319647
0.68300000,-0.05346129
0.68400000,-0.05372557
0.68500000,-0.05398933
0.68600000,-0.05425257
0.68700000,-0.05451527
0.68800000,-0.05477743
0.68900000,-0.05503906
0.69000000,-0.05530015
0.69100000,-0.05556069
0.69200000,-0.05582070
0.69300000,-0.05608015
0.69400000,-0.05633905
0.69500000,-0.05659741
0.69600000,-0.05685520
0.69700000,-0.05711244
0.69800000,-0.05736912
0.69900000,-0.05762524
0.70000000,-0.05788079
0.70100000,-0.05813578
0.70200000,-0.05839019
0.70300000,-0.05864403
0.70400000,-0.05889730
0.70500000,-0.05914999
0.70600000,-0.05940210
0.70700000,-0.05965363
0.70800000,-0.05990457
0.70900000,-0.06015492
0.71000000,-0.06040469
0.71100000,-0.06065386
0.71200000,-0.06090244
0.71300000,-0.06115042
0.71400000,-0.06139780
0.71500000,-0.06164458
0.71600000,-0.06189076
0.71700000,-0.06213633
0.71800000,-0.06238129
0.71900000,-0.06262564
0.72000000,-0.06286937
0.72100000,-0.06311249
0.72200000,-0.06335499
0.72300000,-0.06359687
0.72400000,-0.06383812
0.72500000,-0.06407875
0.72600000,-0.06431875
0.72700000,-0.06455812
0.72800000,-0.06479686
0.72900000,-0.06503496
0.73000000,-0.06527242
0.73100000,-0.06550925
0.73200000,-0.06574543
0.73300000,-0.06598097
0.73400000,-0.06621586
0.73500000,-0.06645010
0.73600000,-0.06668369
0.73700000,-0.06691663
0.73800000,-0.06714891
0.73900000,-0.06738053
0.74000000,-0.06761150
0.74100000,-0.06784180
0.74200000,-0.06807143
0.74300000,-0.06830040
0.74400000,-0.06852869
0.74500000,-0.06875632
0.74600000,-0.06898327
0.74700000,-0.06920955
0.74800000,-0.06943515
0.74900000,-0.06966006
0.75000000,-0.06988430
0.75100000,-0.07010785
0.75200000,-0.07033071
0.75300000,-0.07055288
0.75400000,-0.07077436
0.75500000,-0.07099515
0.75600000,-0.07121524
0.75700000,-0.07143463
0.75800000,-0.07165333
0.75900000,-0.07187132
0.76000000,-0.07208860
0.76100000,-0.07230518
0.76200000,-0.07252105
0.76300000,-0.07273621
0.76400000,-0.07295066
0.76500000,-0.07316439
0.76600000,-0.07337741
0.76700000,-0.07358970
0.76800000,-0.07380128
0.76900000,-0.07401213
0.77000000,-0.07422226
0.77100000,-0.07443165
0.77200000,-0.07464032
0.77300000,-0.07484826
0.77400000,-0.07505546
0.77500000,-0.07526193
0.77600000,-0.07546766
0.77700000,-0.07567265
0.77800000,-0.07587690
0.77900000,-0.07608041
0.78000000,-0.07628317
0.78100000,-0.07648518
0.78200000,-0.07668645
0.78300000,-0.07688696
0.78400000,-0.07708672
0.78500000,-0.07728572
0.78600000,-0.07748396
0.78700000,-0.07768145
0.78800000,-0.07787817
0.78900000,-0.07807413
0.79000000,-0.07826933
0.79100000,-0.07846376
0.79200000,-0.07865742
0.79300000,-0.07885031
0.79400000,-0.07904242
0.79500000,-0.07923377
0.79600000,-0.07942433
0.79700000,-0.07961412
0.79800000,-0.07980313
0.79900000,-0.07999135
0.80000000,-0.08017879
0.80100000,-0.08036545
0.80200000,-0.08055131
0.80300000,-0.08073639
0.80400000,-0.08092068
0.80500000,-0.08110417
0.80600000,-0.08128687
0.80700000,-0.08146878
0.80800000,-0.08164988
0.80900000,-0.08183019
0.81000000,-0.08200969
0.81100000,-0.08218839
0.81200000,-0.08236628
0.81300000,-0.08254337
0.81400000,-0.08271965
0.81500000,-0.08289511
0.81600000,-0.08306977
0.81700000,-0.08324361
0.81800000,-0.08341663
0.81900000,-0.08358884
0.82000000,-0.08376023
0.82100000,-0.08393080
0.82200000,-0.08410054
0.82300000,-0.08426947
0.82400000,-0.08443756
0.82500000,-0.08460483
0.82600000,-0.08477127
0.82700000,-0.08493688
0.82800000,-0.08510166
0.82900000,-0.08526560
0.83000000,-0.08542871
0.83100000,-0.08559098
0.83200000,-0.08575241
0.83300000,-0.08591300
0.83400000,-0.08607275
0.83500000,-0.08623166
0.83600000,-0.08638972
0.83700000,-0.08654693
0.83800000,-0.08670330
0.83900000,-0.08685882
0.84000000,-0.08701349
0.84100000,-0.08716730
0.84200000,-0.08732026
0.84300000,-0.08747237
0.84400000,-0.08762361
0.84500000,-0.08777400
0.84600000,-0.08792353
0.84700000,-0.08807220
0.84800000,-0.08822000
0.84900000,-0.08836694
0.85000000,-0.08851302
0.85100000,-0.08865823
0.85200000,-0.08880257
0.85300000,-0.08894604
0.85400000,-0.08908863
0.85500000,-0.08923036
0.85600000,-0.08937121
0.85700000,-0.08951118
0.85800000,-0.08965028
0.85900000,-0.08978850
0.86000000,-0.08992584
0.86100000,-0.09006230
0.86200000,-0.09019788
0.86300000,-0.09033257
0.86400000,-0.09046638
0.86500000,-0.09059930
0.86600000,-0.09073134
0.86700000,-0.09086248
0.86800000,-0.09099274
0.86900000,-0.09112210
0.87000000,-0.09125057
0.87100000,-0.09137815
0.87200000,-0.09150483
0.87300000,-0.09163062
0.87400000,-0.09175551
0.87500000,-0.09187950
0.87600000,-0.09200259
0.87700000,-0.09212478
0.87800000,-0.09224606
0.87900000,-0.09236644
0.88000000,-0.09248592
0.88100000,-0.09260449
0.88200000,-0.09272216
0.88300000,-0.09283891
0.88400000,-0.09295476
0.88500000,-0.09306969
0.88600000,-0.09318372
0.88700000,-0.09329683
0.88800000,-0.09340903
0.88900000,-0.09352031
0.89000000,-0.09363067
