t,theta
0.00000000,3.00000000
0.00100000,3.00000000
0.00200000,2.99999931
0.00300000,2.99999723
0.00400000,2.99999377
0.00500000,2.99998892
0.00600000,2.99998269
0.00700000,2.99997508
0.00800000,2.99996608
0.00900000,2.99995570
0.01000000,2.99994393
0.01100000,2.99993078
0.01200000,2.99991624
0.01300000,2.99990031
0.01400000,2.99988300
0.01500000,2.99986431
0.01600000,2.99984423
0.01700000,2.99982276
0.01800000,2.99979991
0.01900000,2.99977567
0.02000000,2.99975005
0.02100000,2.99972303
0.02200000,2.99969463
0.02300000,2.99966485
0.02400000,2.99963367
0.02500000,2.99960111
0.02600000,2.99956716
0.02700000,2.99953182
0.02800000,2.99949509
0.02900000,2.99945698
0.03000000,2.99941747
0.03100000,2.99937657
0.03200000,2.99933428
0.03300000,2.99929061
0.03400000,2.99924554
0.03500000,2.99919908
0.03600000,2.99915122
0.03700000,2.99910198
0.03800000,2.99905134
0.03900000,2.99899930
0.04000000,2.99894588
0.04100000,2.99889106
0.04200000,2.99883484
0.04300000,2.99877723
0.04400000,2.99871822
0.04500000,2.99865781
0.04600000,2.99859601
0.04700000,2.99853281
0.04800000,2.99846821
0.04900000,2.99840221
0.05000000,2.99833481
0.05100000,2.99826601
0.05200000,2.99819581
0.05300000,2.99812421
0.05400000,2.99805120
0.05500000,2.99797680
0.05600000,2.99790098
0.05700000,2.99782377
0.05800000,2.99774514
0.05900000,2.99766511
0.06000000,2.99758368
0.06100000,2.99750083
0.06200000,2.99741658
0.06300000,2.99733092
0.06400000,2.99724385
0.06500000,2.99715536
0.06600000,2.99706547
0.06700000,2.99697416
0.06800000,2.99688144
0.06900000,2.99678730
0.07000000,2.99669175
0.07100000,2.99659478
0.07200000,2.99649639
0.07300000,2.99639659
0.07400000,2.99629537
0.07500000,2.99619272
0.07600000,2.99608866
0.07700000,2.99598317
0.07800000,2.99587626
0.07900000,2.99576792
0.08000000,2.99565816
0.08100000,2.99554697
0.08200000,2.99543435
0.08300000,2.99532031
0.08400000,2.99520484
0.08500000,2.99508793
0.08600000,2.99496959
0.08700000,2.99484982
0.08800000,2.99472862
0.08900000,2.99460598
0.09000000,2.99448190
0.09100000,2.99435639
0.09200000,2.99422943
0.09300000,2.99410104
0.09400000,2.99397120
0.09500000,2.99383992
0.09600000,2.99370720
0.09700000,2.99357303
0.09800000,2.99343741
0.09900000,2.99330035
0.10000000,2.99316184
0.10100000,2.99302187
0.10200000,2.99288046
0.10300000,2.99273759
0.10400000,2.99259326
0.10500000,2.99244748
0.10600000,2.99230024
0.10700000,2.99215155
0.10800000,2.99200139
0.10900000,2.99184977
0.11000000,2.99169668
0.11100000,2.99154214
0.11200000,2.99138612
0.11300000,2.99122864
0.11400000,2.99106968
0.11500000,2.99090926
0.11600000,2.99074736
0.11700000,2.99058399
0.11800000,2.99041915
0.11900000,2.99025282
0.12000000,2.99008502
0.12100000,2.98991574
0.12200000,2.98974497
0.12300000,2.98957272
0.12400000,2.98939899
0.12500000,2.98922377
0.12600000,2.98904706
0.12700000,2.98886885
0.12800000,2.98868916
0.12900000,2.98850797
0.13000000,2.98832529
0.13100000,2.98814110
0.13200000,2.98795542
0.13300000,2.98776824
0.13400000,2.98757955
0.13500000,2.98738936
0.13600000,2.98719767
0.13700000,2.98700446
0.13800000,2.98680974
0.13900000,2.98661351
0.14000000,2.98641577
0.14100000,2.98621651
0.14200000,2.98601573
0.14300000,2.98581344
0.14400000,2.98560962
0.14500000,2.98540427
0.14600000,2.98519740
0.14700000,2.98498901
0.14800000,2.98477908
0.14900000,2.98456762
0.15000000,2.98435463
0.15100000,2.98414010
0.15200000,2.98392403
0.15300000,2.98370642
0.15400000,2.98348727
0.15500000,2.98326657
0.15600000,2.98304433
0.15700000,2.98282054
0.15800000,2.98259520
0.15900000,2.98236830
0.16000000,2.98213985
0.16100000,2.98190985
0.16200000,2.98167828
0.16300000,2.98144515
0.16400000,2.98121045
0.16500000,2.98097419
0.16600000,2.98073636
0.16700000,2.98049696
0.16800000,2.98025599
0.16900000,2.98001344
0.17000000,2.97976931
0.17100000,2.97952360
0.17200000,2.97927630
0.17300000,2.97902743
0.17400000,2.97877696
0.17500000,2.97852491
0.17600000,2.97827126
0.17700000,2.97801602
0.17800000,2.97775917
0.17900000,2.97750073
0.18000000,2.97724069
0.18100000,2.97697904
0.18200000,2.97671579
0.18300000,2.97645092
0.18400000,2.97618444
0.18500000,2.97591635
0.18600000,2.97564664
0.18700000,2.97537530
0.18800000,2.97510235
0.18900000,2.97482777
0.19000000,2.97455156
0.19100000,2.97427372
0.19200000,2.97399424
0.19300000,2.97371313
0.19400000,2.97343038
0.19500000,2.97314599
0.19600000,2.97285995
0.19700000,2.97257227
0.19800000,2.97228293
0.19900000,2.97199195
0.20000000,2.97169930
0.20100000,2.97140500
0.20200000,2.97110904
0.20300000,2.97081141
0.20400000,2.97051212
0.20500000,2.97021115
0.20600000,2.96990851
0.20700000,2.96960420
0.20800000,2.96929821
0.20900000,2.96899053
0.21000000,2.96868117
0.21100000,2.96837013
0.21200000,2.96805739
0.21300000,2.96774296
0.21400000,2.96742683
0.21500000,2.96710900
0.21600000,2.96678947
0.21700000,2.96646823
0.21800000,2.96614528
0.21900000,2.96582062
0.22000000,2.96549425
0.22100000,2.96516615
0.22200000,2.96483634
0.22300000,2.96450480
0.22400000,2.96417153
0.22500000,2.96383653
0.22600000,2.96349979
0.22700000,2.96316132
0.22800000,2.96282111
0.22900000,2.96247915
0.23000000,2.96213544
0.23100000,2.96178999
0.23200000,2.96144278
0.23300000,2.96109381
0.23400000,2.96074308
0.23500000,2.96039058
0.23600000,2.96003632
0.23700000,2.95968029
0.23800000,2.95932248
0.23900000,2.95896289
0.24000000,2.95860153
0.24100000,2.95823837
0.24200000,2.95787343
0.24300000,2.95750670
0.24400000,2.95713817
0.24500000,2.95676784
0.24600000,2.95639571
0.24700000,2.95602177
0.24800000,2.95564602
0.24900000,2.95526846
0.25000000,2.95488908
0.25100000,2.95450788
0.25200000,2.95412485
0.25300000,2.95374000
0.25400000,2.95335331
0.25500000,2.95296479
0.25600000,2.95257443
0.25700000,2.95218223
0.25800000,2.95178818
0.25900000,2.95139228
0.26000000,2.95099452
0.26100000,2.95059491
0.26200000,2.95019343
0.26300000,2.94979009
0.26400000,2.94938487
0.26500000,2.94897779
0.26600000,2.94856882
0.26700000,2.94815798
0.26800000,2.94774524
0.26900000,2.94733062
0.27000000,2.94691410
0.27100000,2.94649569
0.27200000,2.94607538
0.27300000,2.94565315
0.27400000,2.94522902
0.27500000,2.94480298
0.27600000,2.94437501
0.27700000,2.94394513
0.27800000,2.94351332
0.27900000,2.94307957
0.28000000,2.94264390
0.28100000,2.94220628
0.28200000,2.94176672
0.28300000,2.94132522
0.28400000,2.94088176
0.28500000,2.94043634
0.28600000,2.93998897
0.28700000,2.93953963
0.28800000,2.93908833
0.28900000,2.93863505
0.29000000,2.93817979
0.29100000,2.93772255
0.29200000,2.93726333
0.29300000,2.93680211
0.29400000,2.93633890
0.29500000,2.93587369
0.29600000,2.93540648
0.29700000,2.93493725
0.29800000,2.93446602
0.29900000,2.93399277
0.30000000,2.93351749
0.30100000,2.93304019
0.30200000,2.93256086
0.30300000,2.93207949
0.30400000,2.93159608
0.30500000,2.93111063
0.30600000,2.93062313
0.30700000,2.93013357
0.30800000,2.92964195
0.30900000,2.92914828
0.31000000,2.92865253
0.31100000,2.92815471
0.31200000,2.92765481
0.31300000,2.92715282
0.31400000,2.92664876
0.31500000,2.92614259
0.31600000,2.92563433
0.31700000,2.92512397
0.31800000,2.92461150
0.31900000,2.92409692
0.32000000,2.92358023
0.32100000,2.92306141
0.32200000,2.92254046
0.32300000,2.92201738
0.32400000,2.92149217
0.32500000,2.92096481
0.32600000,2.92043531
0.32700000,2.91990366
0.32800000,2.91936984
0.32900000,2.91883387
0.33000000,2.91829573
0.33100000,2.91775542
0.33200000,2.91721293
0.33300000,2.91666825
0.33400000,2.91612139
0.33500000,2.91557233
0.33600000,2.91502108
0.33700000,2.91446762
0.33800000,2.91391196
0.33900000,2.91335408
0.34000000,2.91279398
0.34100000,2.91223165
0.34200000,2.91166710
0.34300000,2.91110031
0.34400000,2.91053127
0.34500000,2.90996000
0.34600000,2.90938646
0.34700000,2.90881068
0.34800000,2.90823262
0.34900000,2.90765230
0.35000000,2.90706971
0.35100000,2.90648484
0.35200000,2.90589768
0.35300000,2.90530823
0.35400000,2.90471648
0.35500000,2.90412243
0.35600000,2.90352608
0.35700000,2.90292741
0.35800000,2.90232642
0.35900000,2.90172311
0.36000000,2.90111746
0.36100000,2.90050948
0.36200000,2.89989916
0.36300000,2.89928649
0.36400000,2.89867146
0.36500000,2.89805408
0.36600000,2.89743433
0.36700000,2.89681221
0.36800000,2.89618771
0.36900000,2.89556083
0.37000000,2.89493156
0.37100000,2.89429989
0.37200000,2.89366582
0.37300000,2.89302935
0.37400000,2.89239046
0.37500000,2.89174915
0.37600000,2.89110542
0.37700000,2.89045925
0.37800000,2.88981065
0.37900000,2.88915960
0.38000000,2.88850610
0.38100000,2.88785015
0.38200000,2.88719173
0.38300000,2.88653085
0.38400000,2.88586749
0.38500000,2.88520165
0.38600000,2.88453332
0.38700000,2.88386249
0.38800000,2.88318917
0.38900000,2.88251334
0.39000000,2.88183500
0.39100000,2.88115413
0.39200000,2.88047074
0.39300000,2.87978482
0.39400000,2.87909636
0.39500000,2.87840535
0.39600000,2.87771179
0.39700000,2.87701568
0.39800000,2.87631699
0.39900000,2.87561574
0.40000000,2.87491190
0.40100000,2.87420549
0.40200000,2.87349648
0.40300000,2.87278487
0.40400000,2.87207065
0.40500000,2.87135382
0.40600000,2.87063438
0.40700000,2.86991231
0.40800000,2.86918760
0.40900000,2.86846026
0.41000000,2.86773027
0.41100000,2.86699763
0.41200000,2.86626232
0.41300000,2.86552435
0.41400000,2.86478371
0.41500000,2.86404039
0.41600000,2.86329437
0.41700000,2.86254567
0.41800000,2.86179426
0.41900000,2.86104014
0.42000000,2.86028330
0.42100000,2.85952374
0.42200000,2.85876145
0.42300000,2.85799643
0.42400000,2.85722866
0.42500000,2.85645813
0.42600000,2.85568485
0.42700000,2.85490880
0.42800000,2.85412997
0.42900000,2.85334837
0.43000000,2.85256397
0.43100000,2.85177678
0.43200000,2.85098679
0.43300000,2.85019399
0.43400000,2.84939836
0.43500000,2.84859991
0.43600000,2.84779863
0.43700000,2.84699451
0.43800000,2.84618754
0.43900000,2.84537771
0.44000000,2.84456502
0.44100000,2.84374946
0.44200000,2.84293102
0.44300000,2.84210969
0.44400000,2.84128547
0.44500000,2.84045835
0.44600000,2.83962831
0.44700000,2.83879536
0.44800000,2.83795949
0.44900000,2.83712068
0.45000000,2.83627893
0.45100000,2.83543423
0.45200000,2.83458657
0.45300000,2.83373595
0.45400000,2.83288236
0.45500000,2.83202579
0.45600000,2.83116623
0.45700000,2.83030367
0.45800000,2.82943810
0.45900000,2.82856953
0.46000000,2.82769793
0.46100000,2.82682331
0.46200000,2.82594564
0.46300000,2.82506494
0.46400000,2.82418117
0.46500000,2.82329435
0.46600000,2.82240446
0.46700000,2.82151149
0.46800000,2.82061543
0.46900000,2.81971627
0.47000000,2.81881402
0.47100000,2.81790865
0.47200000,2.81700016
0.47300000,2.81608854
0.47400000,2.81517379
0.47500000,2.81425589
0.47600000,2.81333483
0.47700000,2.81241062
0.47800000,2.81148323
0.47900000,2.81055266
0.48000000,2.80961890
0.48100000,2.80868195
0.48200000,2.80774179
0.48300000,2.80679842
0.48400000,2.80585182
0.48500000,2.80490199
0.48600000,2.80394892
0.48700000,2.80299260
0.48800000,2.80203302
0.48900000,2.80107017
0.49000000,2.80010405
0.49100000,2.79913464
0.49200000,2.79816194
0.49300000,2.79718593
0.49400000,2.79620662
0.49500000,2.79522398
0.49600000,2.79423801
0.49700000,2.79324870
0.49800000,2.79225604
0.49900000,2.79126003
0.50000000,2.79026065
0.50100000,2.78925789
0.50200000,2.78825174
0.50300000,2.78724221
0.50400000,2.78622926
0.50500000,2.78521291
0.50600000,2.78419313
0.50700000,2.78316992
0.50800000,2.78214327
0.50900000,2.78111317
0.51000000,2.78007961
0.51100000,2.77904258
0.51200000,2.77800207
0.51300000,2.77695807
0.51400000,2.77591057
0.51500000,2.77485956
0.51600000,2.77380504
0.51700000,2.77274699
0.51800000,2.77168540
0.51900000,2.77062027
0.52000000,2.76955158
0.52100000,2.76847932
0.52200000,2.76740349
0.52300000,2.76632407
0.52400000,2.76524106
0.52500000,2.76415444
0.52600000,2.76306421
0.52700000,2.76197035
0.52800000,2.76087285
0.52900000,2.75977171
0.53000000,2.75866692
0.53100000,2.75755845
0.53200000,2.75644632
0.53300000,2.75533050
0.53400000,2.75421098
0.53500000,2.75308775
0.53600000,2.75196081
0.53700000,2.75083015
0.53800000,2.74969575
0.53900000,2.74855760
0.54000000,2.74741569
0.54100000,2.74627002
0.54200000,2.74512056
0.54300000,2.74396732
0.54400000,2.74281028
0.54500000,2.74164944
0.54600000,2.74048477
0.54700000,2.73931627
0.54800000,2.73814393
0.54900000,2.73696774
0.55000000,2.73578769
0.55100000,2.73460376
0.55200000,2.73341596
0.55300000,2.73222425
0.55400000,2.73102865
0.55500000,2.72982913
0.55600000,2.72862568
0.55700000,2.72741829
0.55800000,2.72620696
0.55900000,2.72499167
0.56000000,2.72377241
0.56100000,2.72254916
0.56200000,2.72132193
0.56300000,2.72009069
0.56400000,2.71885544
0.56500000,2.71761617
0.56600000,2.71637286
0.56700000,2.71512550
0.56800000,2.71387409
0.56900000,2.71261860
0.57000000,2.71135904
0.57100000,2.71009538
0.57200000,2.70882762
0.57300000,2.70755575
0.57400000,2.70627975
0.57500000,2.70499961
0.57600000,2.70371533
0.57700000,2.70242689
0.57800000,2.70113427
0.57900000,2.69983748
0.58000000,2.69853649
0.58100000,2.69723129
0.58200000,2.69592188
0.58300000,2.69460823
0.58400000,2.69329035
0.58500000,2.69196822
0.58600000,2.69064182
0.58700000,2.68931114
0.58800000,2.68797618
0.58900000,2.68663692
0.59000000,2.68529335
0.59100000,2.68394546
0.59200000,2.68259323
0.59300000,2.68123666
0.59400000,2.67987572
0.59500000,2.67851042
0.59600000,2.67714074
0.59700000,2.67576666
0.59800000,2.67438817
0.59900000,2.67300527
0.60000000,2.67161794
0.60100000,2.67022616
0.60200000,2.66882993
0.60300000,2.66742923
0.60400000,2.66602405
0.60500000,2.66461438
0.60600000,2.66320021
0.60700000,2.66178152
0.60800000,2.66035830
0.60900000,2.65893055
0.61000000,2.65749823
0.61100000,2.65606136
0.61200000,2.65461990
0.61300000,2.65317386
0.61400000,2.65172321
0.61500000,2.65026794
0.61600000,2.64880805
0.61700000,2.64734352
0.61800000,2.64587433
0.61900000,2.64440048
0.62000000,2.64292194
0.62100000,2.64143872
0.62200000,2.63995079
0.62300000,2.63845815
0.62400000,2.63696077
0.62500000,2.63545865
0.62600000,2.63395178
0.62700000,2.63244013
0.62800000,2.63092371
0.62900000,2.62940249
0.63000000,2.62787646
0.63100000,2.62634561
0.63200000,2.62480993
0.63300000,2.62326940
0.63400000,2.62172401
0.63500000,2.62017374
0.63600000,2.61861859
0.63700000,2.61705854
0.63800000,2.61549358
0.63900000,2.61392369
0.64000000,2.61234887
0.64100000,2.61076908
0.64200000,2.60918434
0.64300000,2.60759461
0.64400000,2.60599989
0.64500000,2.60440016
0.64600000,2.60279542
0.64700000,2.60118564
0.64800000,2.59957081
0.64900000,2.59795092
0.65000000,2.59632596
0.65100000,2.59469591
0.65200000,2.59306076
0.65300000,2.59142049
0.65400000,2.58977510
0.65500000,2.58812456
0.65600000,2.58646886
0.65700000,2.58480800
0.65800000,2.58314195
0.65900000,2.58147070
0.66000000,2.57979424
0.66100000,2.57811255
0.66200000,2.57642563
0.66300000,2.57473345
0.66400000,2.57303600
0.66500000,2.57133327
0.66600000,2.56962525
0.66700000,2.56791191
0.66800000,2.56619325
0.66900000,2.56446926
0.67000000,2.56273991
0.67100000,2.56100519
0.67200000,2.55926509
0.67300000,2.55751960
0.67400000,2.55576870
0.67500000,2.55401237
0.67600000,2.55225061
0.67700000,2.55048339
0.67800000,2.54871071
0.67900000,2.54693254
0.68000000,2.54514888
0.68100000,2.54335971
0.68200000,2.54156501
0.68300000,2.53976478
0.68400000,2.53795899
0.68500000,2.53614763
0.68600000,2.53433069
0.68700000,2.53250815
0.68800000,2.53068000
0.68900000,2.52884622
0.69000000,2.52700680
0.69100000,2.52516173
0.69200000,2.52331098
0.69300000,2.52145454
0.69400000,2.51959241
0.69500000,2.51772456
0.69600000,2.51585097
0.69700000,2.51397164
0.69800000,2.51208656
0.69900000,2.51019569
0.70000000,2.50829904
0.70100000,2.50639658
0.70200000,2.50448829
0.70300000,2.50257418
0.70400000,2.50065421
0.70500000,2.49872838
0.70600000,2.49679666
0.70700000,2.49485905
0.70800000,2.49291553
0.70900000,2.49096608
0.71000000,2.48901069
0.71100000,2.48704934
0.71200000,2.48508202
0.71300000,2.48310872
0.71400000,2.48112941
0.71500000,2.47914408
0.71600000,2.47715272
0.71700000,2.47515531
0.71800000,2.47315183
0.71900000,2.47114228
0.72000000,2.46912662
0.72100000,2.46710486
0.72200000,2.46507698
0.72300000,2.46304295
0.72400000,2.46100276
0.72500000,2.45895640
0.72600000,2.45690385
0.72700000,2.45484510
0.72800000,2.45278012
0.72900000,2.45070892
0.73000000,2.44863146
0.73100000,2.44654773
0.73200000,2.44445772
0.73300000,2.44236142
0.73400000,2.44025880
0.73500000,2.43814985
0.73600000,2.43603455
0.73700000,2.43391289
0.73800000,2.43178486
0.73900000,2.42965043
0.74000000,2.42750959
0.74100000,2.42536233
0.74200000,2.42320863
0.74300000,2.42104847
0.74400000,2.41888184
0.74500000,2.41670872
0.74600000,2.41452909
0.74700000,2.41234295
0.74800000,2.41015027
0.74900000,2.40795103
0.75000000,2.40574523
0.75100000,2.40353284
0.75200000,2.40131386
0.75300000,2.39908825
0.75400000,2.39685602
0.75500000,2.39461713
0.75600000,2.39237158
0.75700000,2.39011934
0.75800000,2.38786041
0.75900000,2.38559477
0.76000000,2.38332240
0.76100000,2.38104328
0.76200000,2.37875739
0.76300000,2.37646473
0.76400000,2.37416528
0.76500000,2.37185901
0.76600000,2.36954592
0.76700000,2.36722598
0.76800000,2.36489919
0.76900000,2.36256551
0.77000000,2.36022495
0.77100000,2.35787747
0.77200000,2.35552308
0.77300000,2.35316173
0.77400000,2.35079344
0.77500000,2.34841816
0.77600000,2.34603590
0.77700000,2.34364663
0.77800000,2.34125034
0.77900000,2.33884701
0.78000000,2.33643662
0.78100000,2.33401916
0.78200000,2.33159461
0.78300000,2.32916296
0.78400000,2.32672418
0.78500000,2.32427827
0.78600000,2.32182520
0.78700000,2.31936496
0.78800000,2.31689753
0.78900000,2.31442290
0.79000000,2.31194105
0.79100000,2.30945196
0.79200000,2.30695562
0.79300000,2.30445201
0.79400000,2.30194111
0.79500000,2.29942291
0.79600000,2.29689739
0.79700000,2.29436453
0.79800000,2.29182433
0.79900000,2.28927675
0.80000000,2.28672179
0.80100000,2.28415943
0.80200000,2.28158965
0.80300000,2.27901243
0.80400000,2.27642777
0.80500000,2.27383564
0.80600000,2.27123602
0.80700000,2.26862890
0.80800000,2.26601427
0.80900000,2.26339210
0.81000000,2.26076238
0.81100000,2.25812510
0.81200000,2.25548024
0.81300000,2.25282777
0.81400000,2.25016769
0.81500000,2.24749998
0.81600000,2.24482462
0.81700000,2.24214159
0.81800000,2.23945089
0.81900000,2.23675249
0.82000000,2.23404637
0.82100000,2.23133252
0.82200000,2.22861093
0.82300000,2.22588157
0.82400000,2.22314443
0.82500000,2.22039950
0.82600000,2.21764676
0.82700000,2.21488619
0.82800000,2.21211777
0.82900000,2.20934149
0.83000000,2.20655734
0.83100000,2.20376529
0.83200000,2.20096533
0.83300000,2.19815745
0.83400000,2.19534162
0.83500000,2.19251784
0.83600000,2.18968608
0.83700000,2.18684634
0.83800000,2.18399858
0.83900000,2.18114280
0.84000000,2.17827899
0.84100000,2.17540712
0.84200000,2.17252717
0.84300000,2.16963915
0.84400000,2.16674301
0.84500000,2.16383876
0.84600000,2.16092638
0.84700000,2.15800584
0.84800000,2.15507714
0.84900000,2.15214025
0.85000000,2.14919517
0.85100000,2.14624187
0.85200000,2.14328034
0.85300000,2.14031057
0.85400000,2.13733253
0.85500000,2.13434622
0.85600000,2.13135161
0.85700000,2.12834870
0.85800000,2.12533746
0.85900000,2.12231788
0.86000000,2.11928994
0.86100000,2.11625364
0.86200000,2.11320894
0.86300000,2.11015585
0.86400000,2.10709434
0.86500000,2.10402439
0.86600000,2.10094600
0.86700000,2.09785915
0.86800000,2.09476381
0.86900000,2.09165998
0.87000000,2.08854765
0.87100000,2.08542678
0.87200000,2.08229738
0.87300000,2.07915943
0.87400000,2.07601290
0.87500000,2.07285779
0.87600000,2.06969409
0.87700000,2.06652176
0.87800000,2.06334081
0.87900000,2.06015121
0.88000000,2.05695296
0.88100000,2.05374603
0.88200000,2.05053042
0.88300000,2.04730610
0.88400000,2.04407306
0.88500000,2.04083129
0.88600000,2.03758078
0.88700000,2.03432151
0.88800000,2.03105346
0.88900000,2.02777662
0.89000000,2.02449098
0.89100000,2.02119652
0.89200000,2.01789323
0.89300000,2.01458109
0.89400000,2.01126010
0.89500000,2.00793023
0.89600000,2.00459147
0.89700000,2.00124381
0.89800000,1.99788724
0.89900000,1.99452173
0.90000000,1.99114729
0.90100000,1.98776389
0.90200000,1.98437152
0.90300000,1.98097016
0.90400000,1.97755981
0.90500000,1.97414046
0.90600000,1.97071207
0.90700000,1.96727466
